pressure,voltage
5.0111,0.0627
6.0244,0.0708
7.0013,0.0779
8.0006,0.0858
8.9845,0.0944
9.9992,0.1025
11.025,0.1111
12.048,0.1202
13.057,0.1291
14.037,0.1367
14.978,0.144
16.002,0.1523
16.966,0.1589
18.02,0.1674
18.989,0.1744
20.031,0.1834
20.937,0.1907
21.914,0.1981
22.962,0.2038
24.103,0.2135
25.024,0.2223
26.008,0.2294
27.061,0.2386
27.806,0.2404
28.996,0.253
29.869,0.2609
30.776,0.2686
31.756,0.2764
32.791,0.2852
33.945,0.2943
35.193,0.3045
35.887,0.31
36.621,0.3122
38.362,0.3293
